Frequency,Power,Turbulence,Bedload
5.0,-135.91857152653887,-135.91857152653887,-126.31359705002174
5.757575757575758,-134.69173699446029,-134.69173699446029,-123.31187318607873
6.515151515151516,-133.69323185936247,-133.69323185936247,-120.72215899004101
7.2727272727272725,-132.86871879629086,-132.86871879629086,-118.45269661687763
8.030303030303031,-132.18112505151967,-132.18112505151967,-116.43931474890275
8.787878787878789,-131.60424606465892,-131.60424606465892,-114.63545998256153
9.545454545454545,-131.11903519656244,-131.11903519656244,-113.00635664272035
10.303030303030303,-130.71132727505903,-130.71132727505903,-111.52539608825721
11.06060606060606,-130.37037739259569,-130.37037739259569,-110.17180437092611
11.818181818181818,-130.0878884351958,-130.0878884351958,-108.9290800126375
12.575757575757576,-129.85734499496465,-129.85734499496465,-107.78391539834499
13.333333333333334,-129.67354671014292,-129.67354671014292,-106.72543280160465
14.09090909090909,-129.53227551878956,-129.53227551878956,-105.74463141923673
14.848484848484848,-129.43005513410037,-129.43005513410037,-104.83397967864309
15.606060606060606,-129.36397531530136,-129.36397531530136,-103.98710985330018
16.363636363636363,-129.3315623797767,-129.3315623797767,-103.19858615541852
17.12121212121212,-129.33068311183567,-129.33068311183567,-102.46372650262677
17.87878787878788,-129.35947301160584,-129.35947301160584,-101.77846407363278
18.636363636363637,-129.41628240683767,-129.41628240683767,-101.13923873932167
19.393939393939394,-129.49963574461864,-129.49963574461864,-100.54291117790207
20.151515151515152,-129.60820064949257,-129.60820064949257,-99.98669438431604
20.909090909090907,-129.74076424457547,-129.74076424457547,-99.4680986352613
21.666666666666668,-129.89621489118014,-129.89621489118014,-98.98488694575806
22.424242424242426,-130.07352798305018,-130.07352798305018,-98.5350387655833
23.18181818181818,-130.2717547837339,-130.2717547837339,-98.11672019076369
23.939393939393938,-130.4900135551399,-130.4900135551399,-97.72825935901136
24.696969696969695,-130.72748241701402,-130.72748241701402,-97.36812599484489
25.454545454545453,-130.9833935190543,-130.9833935190543,-97.03491429578574
26.21212121212121,-131.25702821277372,-131.25702821277372,-96.72732852376976
26.96969696969697,-131.5477129886253,-131.5477129886253,-96.44417079902331
27.727272727272727,-131.8548160023588,-131.8548160023588,-96.18433069682402
28.484848484848484,-132.17774405825227,-132.17774405825227,-95.94677632796808
29.242424242424242,-132.5159399495679,-132.5159399495679,-95.73054664674436
30.0,-132.8688800811287,-132.8688800811287,-95.53474477978324
30.757575757575758,-133.23607231737878,-133.23607231737878,-95.35853220834545
31.515151515151516,-133.61705401320788,-133.61705401320788,-95.20112366774913
32.27272727272727,-134.01139019532988,-134.01139019532988,-95.06178265247195
33.03030303030303,-134.41867186994645,-134.41867186994645,-94.93981743536719
33.78787878787879,-134.83851443843088,-134.83851443843088,-94.8345775254471
34.54545454545455,-135.27055620729914,-135.27055620729914,-94.74545050162766
35.303030303030305,-135.71445698214762,-135.71445698214762,-94.67185917032947
36.06060606060606,-136.16989673779275,-136.16989673779275,-94.6132590033857
36.81818181818181,-136.63657435874856,-136.63657435874856,-94.56913581970713
37.57575757575758,-137.11420644557268,-137.11420644557268,-94.53900367990332
38.333333333333336,-137.60252618362153,-137.60252618362153,-94.52240296780006
39.09090909090909,-138.101282271467,-138.101282271467,-94.51889863671659
39.84848484848485,-138.61023790671325,-138.61023790671325,-94.52807860162554
40.60606060606061,-139.12916982726858,-139.12916982726858,-94.54955226103718
41.36363636363636,-139.6578674063145,-139.6578674063145,-94.58294913472174
42.12121212121212,-140.19613179931122,-140.19613179931122,-94.62791760529325
42.878787878787875,-140.7437751414076,-140.7437751414076,-94.68412375328315
43.63636363636363,-141.30061979361105,-141.30061979361105,-94.75125027669087
44.39393939393939,-141.86649763603066,-141.86649763603066,-94.82899548714501
45.15151515151515,-142.441249406453,-142.441249406453,-94.91707237578639
45.90909090909091,-143.0247240824492,-143.0247240824492,-95.01520774281411
46.666666666666664,-143.6167783051564,-143.6167783051564,-95.12314138534492
47.42424242424242,-144.2172758428281,-144.2172758428281,-95.24062533884339
48.18181818181818,-144.8260870922116,-144.8260870922116,-95.3674231679011
48.93939393939394,-145.4430886157879,-145.4430886157879,-95.50330930259122
49.696969696969695,-146.06816271290137,-146.06816271290137,-95.64806841701113
50.45454545454545,-146.70119702281428,-146.70119702281428,-95.80149484696024
51.21212121212121,-147.34208415774188,-147.34208415774188,-95.96339204399078
51.96969696969697,-147.9907213639591,-147.9907213639591,-96.13357206332117
52.72727272727273,-148.64701020911613,-148.64701020911613,-96.311855083323
53.484848484848484,-149.31085629395858,-149.31085629395858,-96.49806895448594
54.24242424242424,-149.98216898671222,-149.98216898671222,-96.69204877593542
55.0,-150.66086117846686,-150.66086117846686,-96.89363649772817
55.75757575757576,-151.3468490579719,-151.3468490579719,-97.10268054728593
56.515151515151516,-152.04005190433824,-152.04005190433824,-97.31903547844533
57.27272727272727,-152.7403918962266,-152.7403918962266,-97.54256164171089
58.03030303030303,-153.4477939361878,-153.4477939361878,-97.77312487439363
58.78787878787879,-154.16218548890632,-154.16218548890632,-98.01059620940583
59.54545454545455,-154.8834964321841,-154.8834964321841,-98.25485160156263
60.303030303030305,-155.6107421949681,-155.6107421949681,-98.50577167031324
61.06060606060606,-156.3466072537275,-156.3466072537275,-98.76324145789286
61.81818181818182,-157.0882777693398,-157.0882777693398,-99.02715020194759
62.57575757575758,-157.83660872516586,-157.83660872516586,-99.29739112174241
63.333333333333336,-158.59154020400499,-158.59154020400499,-99.57386121711616
64.0909090909091,-159.35301402013405,-159.35301402013405,-99.85646107939681
64.84848484848484,-160.12097363347291,-160.12097363347291,-100.14509471353787
65.60606060606061,-160.89536406989714,-160.89536406989714,-100.43966937078034
66.36363636363636,-161.67613184715677,-161.67613184715677,-100.74009539118585
67.12121212121212,-162.46322490590998,-162.46322490590998,-101.04628605542626
67.87878787878788,-163.25659254542575,-163.25659254542575,-101.35815744525088
68.63636363636363,-164.05618536355118,-164.05618536355118,-101.67562831208818
69.39393939393939,-164.86195520057734,-164.86195520057734,-101.99861995327066
70.15151515151516,-165.67385508667317,-165.67385508667317,-102.32705609540372
70.9090909090909,-166.49183919258678,-166.49183919258678,-102.66086278442762
71.66666666666667,-167.31586278334504,-167.31586278334504,-102.99996828195029
72.42424242424242,-168.14588217470504,-168.14588217470504,-103.34430296745417
73.18181818181819,-168.9818546921379,-168.9818546921379,-103.69379924600585
73.93939393939394,-169.8237386321436,-169.8237386321436,-104.04839146112003
74.6969696969697,-170.67149322571697,-170.67149322571697,-104.40801581245171
75.45454545454545,-171.5250786038007,-171.5250786038007,-104.77261027801133
76.21212121212122,-172.3844557645771,-172.3844557645771,-105.14211454061711
76.96969696969697,-173.24958654246467,-173.24958654246467,-105.51646991831765
77.72727272727272,-174.1204335786968,-174.1204335786968,-105.89561929853451
78.48484848484848,-174.99696029337287,-174.99696029337287,-106.27950707569195
79.24242424242424,-175.87913085887948,-175.87913085887948,-106.66807909211514
80.0,-176.76691017459163,-176.76691017459163,-107.06128258199372
