Frequency,Power,Turbulence,Bedload
5.0,-119.65397131679165,-119.65397131679165,-125.04590284126442
5.757575757575758,-118.27673179011663,-118.27673179011663,-122.04417897732141
6.515151515151516,-117.14917969161147,-117.14917969161147,-119.45446478128369
7.2727272727272725,-116.21220373573215,-116.21220373573215,-117.18500240812028
8.030303030303031,-115.42532583064607,-115.42532583064607,-115.17162054014541
8.787878787878789,-114.75984187352132,-114.75984187352132,-113.36776577380421
9.545454545454545,-114.19482502728592,-114.19482502728592,-111.73866243396303
10.303030303030303,-113.71466558228607,-113.71466558228607,-110.25770187949988
11.06060606060606,-113.30748822211899,-113.30748822211899,-108.90411016216879
11.818181818181818,-112.96409689072803,-112.96409689072803,-107.66138580388018
12.575757575757576,-112.67725109047387,-112.67725109047387,-106.51622118958764
13.333333333333334,-112.44115818465065,-112.44115818465065,-105.45773859284733
14.09090909090909,-112.25111084950908,-112.25111084950908,-104.4769372104794
14.848484848484848,-112.10322452844318,-112.10322452844318,-103.56628546988576
15.606060606060606,-111.99424517446133,-111.99424517446133,-102.71941564454286
16.363636363636363,-111.9214071797251,-111.9214071797251,-101.93089194666118
17.12121212121212,-111.88232758157069,-111.88232758157069,-101.19603229386942
17.87878787878788,-111.87492674105263,-111.87492674105263,-100.51076986487544
18.636363636363637,-111.89736848433405,-111.89736848433405,-99.87154453056434
19.393939393939394,-111.94801463905608,-111.94801463905608,-99.27521696914475
20.151515151515152,-112.02539027025648,-112.02539027025648,-98.71900017555872
20.909090909090907,-112.1281569033444,-112.1281569033444,-98.20040442650398
21.666666666666668,-112.255091732802,-112.255091732802,-97.71719273700074
22.424242424242426,-112.40507133380417,-112.40507133380417,-97.26734455682596
23.18181818181818,-112.57705877424686,-112.57705877424686,-96.84902598200637
23.939393939393938,-112.77009330487655,-112.77009330487655,-96.46056515025404
24.696969696969695,-112.98328201243216,-112.98328201243216,-96.10043178608755
25.454545454545453,-113.21579297443898,-113.21579297443898,-95.76722008702839
26.21212121212121,-113.46684956866225,-113.46684956866225,-95.45963431501242
26.96969696969697,-113.7357256755476,-113.7357256755476,-95.17647659026599
27.727272727272727,-114.0217415757958,-114.0217415757958,-94.91663648806667
28.484848484848484,-114.32426039308943,-114.32426039308943,-94.67908211921076
29.242424242424242,-114.64268496800017,-114.64268496800017,-94.46285243798704
30.0,-114.97645507627124,-114.97645507627124,-94.26705057102592
30.757575757575758,-115.32504492522393,-115.32504492522393,-94.09083799958813
31.515151515151516,-115.68796087763226,-115.68796087763226,-93.9334294589918
32.27272727272727,-116.06473936426863,-116.06473936426863,-93.79408844371461
33.03030303030303,-116.45494495536363,-116.45494495536363,-93.67212322660987
33.78787878787879,-116.85816856811962,-116.85816856811962,-93.56688331668978
34.54545454545455,-117.27402579268188,-117.27402579268188,-93.47775629287034
35.303030303030305,-117.70215532298712,-117.70215532298712,-93.40416496157212
36.06060606060606,-118.14221748196232,-118.14221748196232,-93.34556479462839
36.81818181818181,-118.59389283286113,-118.59389283286113,-93.30144161094981
37.57575757575758,-119.05688087026489,-119.05688087026489,-93.271309471146
38.333333333333336,-119.5308987855728,-119.5308987855728,-93.25470875904274
39.09090909090909,-120.0156803027605,-120.0156803027605,-93.25120442795927
39.84848484848485,-120.51097458087625,-120.51097458087625,-93.2603843928682
40.60606060606061,-121.01654518023244,-121.01654518023244,-93.28185805227986
41.36363636363636,-121.53216908958473,-121.53216908958473,-93.31525492596442
42.12121212121212,-122.05763581181158,-122.05763581181158,-93.3602233965359
42.878787878787875,-122.59274650574338,-122.59274650574338,-93.41642954452583
43.63636363636363,-123.13731318186771,-123.13731318186771,-93.48355606793355
44.39393939393939,-123.69115794967472,-123.69115794967472,-93.56130127838767
45.15151515151515,-124.25411231441815,-124.25411231441815,-93.64937816702906
45.90909090909091,-124.82601652106702,-124.82601652106702,-93.74751353405678
46.666666666666664,-125.40671894321608,-125.40671894321608,-93.85544717658759
47.42424242424242,-125.9960755147192,-125.9960755147192,-93.97293113008604
48.18181818181818,-126.59394920181066,-126.59394920181066,-94.09972895914376
48.93939393939394,-127.20020951349063,-127.20020951349063,-94.2356150938339
49.696969696969695,-127.81473204797096,-127.81473204797096,-94.38037420825381
50.45454545454545,-128.4373980730111,-128.4373980730111,-94.53380063820292
51.21212121212121,-129.06809413801648,-129.06809413801648,-94.69569783523346
51.96969696969697,-129.70671171582643,-129.70671171582643,-94.86587785456382
52.72727272727273,-130.3531468721833,-130.3531468721833,-95.04416087456565
53.484848484848484,-131.0072999609452,-131.0072999609452,-95.23037474572862
54.24242424242424,-131.66907534318662,-131.66907534318662,-95.4243545671781
55.0,-132.33838112841335,-132.33838112841335,-95.62594228897085
55.75757575757576,-133.01512893620983,-133.01512893620983,-95.83498633852858
56.515151515151516,-133.69923367672723,-133.69923367672723,-96.051341269688
57.27272727272727,-134.39061334851382,-134.39061334851382,-96.27486743295357
58.03030303030303,-135.0891888522832,-135.0891888522832,-96.5054306656363
58.78787878787879,-135.794883819308,-135.794883819308,-96.74290200064851
59.54545454545455,-136.50762445321752,-136.50762445321752,-96.98715739280532
60.303030303030305,-137.22733938406583,-137.22733938406583,-97.23807746155592
61.06060606060606,-137.95395953362248,-137.95395953362248,-97.49554724913553
61.81818181818182,-138.68741799091902,-138.68741799091902,-97.75945599319024
62.57575757575758,-139.42764989716213,-139.42764989716213,-98.02969691298507
63.333333333333336,-140.17459233919823,-140.17459233919823,-98.30616700835883
64.0909090909091,-140.92818425078204,-140.92818425078204,-98.58876687063947
64.84848484848484,-141.6883663209676,-141.6883663209676,-98.87740050478055
65.60606060606061,-142.45508090899963,-142.45508090899963,-99.171975162023
66.36363636363636,-143.22827196513865,-143.22827196513865,-99.47240118242853
67.12121212121212,-144.00788495690531,-144.00788495690531,-99.77859184666892
67.87878787878788,-144.7938668002766,-144.7938668002766,-100.09046323649356
68.63636363636363,-145.58616579541024,-145.58616579541024,-100.40793410333083
69.39393939393939,-146.3847315665126,-146.3847315665126,-100.73092574451334
70.15151515151516,-147.18951500550298,-147.18951500550298,-101.0593618866464
70.9090909090909,-148.00046821915902,-148.00046821915902,-101.3931685756703
71.66666666666667,-148.81754447945835,-148.81754447945835,-101.73227407319297
72.42424242424242,-149.640698176859,-149.640698176859,-102.07660875869684
73.18181818181819,-150.46988477628489,-150.46988477628489,-102.4261050372485
73.93939393939394,-151.30506077560543,-151.30506077560543,-102.7806972523627
74.6969696969697,-152.14618366641818,-152.14618366641818,-103.14032160369437
75.45454545454545,-152.99321189696093,-152.99321189696093,-103.50491606925401
76.21212121212122,-153.84610483699615,-153.84610483699615,-103.8744203318598
76.96969696969697,-154.7048227445256,-154.7048227445256,-104.24877570956033
77.72727272727272,-155.56932673420465,-155.56932673420465,-104.6279250897772
78.48484848484848,-156.43957874733923,-156.43957874733923,-105.01181286693463
79.24242424242424,-157.315541523357,-157.315541523357,-105.4003848833578
80.0,-158.19717857265607,-158.19717857265607,-105.79358837323639
